T/s	S(T)/ms-2
0	1.608184
0.01	1.97806632
0.02	2.34794864
0.03	2.71783096
0.04	3.08771328
0.05	3.4575956
0.06	3.82747792
0.07	4.19736024
0.08	4.56724256
0.09	4.93712488
0.1	5.3070072
0.11	5.3070072
0.12	5.3070072
0.13	5.3070072
0.14	5.3070072
0.15	5.3070072
0.16	5.3070072
0.17	5.3070072
0.18	5.3070072
0.19	5.3070072
0.2	5.3070072
0.21	5.3070072
0.22	5.3070072
0.23	5.3070072
0.24	5.3070072
0.25	5.3070072
0.26	5.3070072
0.27	5.3070072
0.28	5.3070072
0.29	5.3070072
0.3	5.3070072
0.31	5.3070072
0.32	5.3070072
0.33	5.3070072
0.34	5.3070072
0.35	5.3070072
0.36	5.3070072
0.37	5.3070072
0.38	5.3070072
0.39	5.3070072
0.4	5.3070072
0.41	5.3070072
0.42	5.3070072
0.43	5.3070072
0.44	5.3070072
0.45	5.3070072
0.46	5.3070072
0.47	5.3070072
0.48	5.3070072
0.49	5.3070072
0.5	5.3070072
0.51	5.3070072
0.52	5.3070072
0.53	5.3070072
0.54	5.3070072
0.55	5.3070072
0.56	5.3070072
0.57	5.3070072
0.58	5.3070072
0.59	5.3070072
0.6	5.3070072
0.61	5.3070072
0.62	5.3070072
0.63	5.3070072
0.64	5.3070072
0.65	5.3070072
0.66	5.3070072
0.67	5.3070072
0.68	5.3070072
0.69	5.3070072
0.7	5.3070072
0.71	5.3070072
0.72	5.3070072
0.73	5.3070072
0.74	5.3070072
0.75	5.3070072
0.76	5.3070072
0.77	5.3070072
0.78	5.3070072
0.79	5.3070072
0.8	5.3070072
0.81	5.241488593
0.82	5.177568
0.83	5.115187663
0.84	5.054292571
0.85	4.994830306
0.86	4.936750884
0.87	4.880006621
0.88	4.824552
0.89	4.770343551
0.9	4.717339733
0.91	4.665500835
0.92	4.61478887
0.93	4.565167484
0.94	4.516601872
0.95	4.469058695
0.96	4.422506
0.97	4.376913155
0.98	4.332250776
0.99	4.288490667
1	4.24560576
1.01	4.203570059
1.02	4.162358588
1.03	4.12194734
1.04	4.082313231
1.05	4.043434057
1.06	4.005288453
1.07	3.96785585
1.08	3.931116444
1.09	3.895051156
1.1	3.8596416
1.11	3.824870054
1.12	3.790719429
1.13	3.757173239
1.14	3.724215579
1.15	3.691831096
1.16	3.660004966
1.17	3.628722872
1.18	3.597970983
1.19	3.567735933
1.2	3.5380048
1.21	3.508765091
1.22	3.480004721
1.23	3.451712
1.24	3.423875613
1.25	3.396484608
1.26	3.369528381
1.27	3.342996661
1.28	3.3168795
1.29	3.291167256
1.3	3.265850585
1.31	3.240920427
1.32	3.216368
1.33	3.192184782
1.34	3.168362507
1.35	3.144893156
1.36	3.121768941
1.37	3.098982307
1.38	3.076525913
1.39	3.054392633
1.4	3.032575543
1.41	3.011067915
1.42	2.989863211
1.43	2.968955077
1.44	2.948337333
1.45	2.928003972
1.46	2.907949151
1.47	2.888167184
1.48	2.868652541
1.49	2.849399839
1.5	2.83040384
1.51	2.811659444
1.52	2.793161684
1.53	2.774905725
1.54	2.756886857
1.55	2.73910049
1.56	2.721542154
1.57	2.70420749
1.58	2.687092253
1.59	2.670192302
1.6	2.6535036
1.61	2.637022211
1.62	2.620744296
1.63	2.60466611
1.64	2.588784
1.65	2.5730944
1.66	2.557593831
1.67	2.542278898
1.68	2.527146286
1.69	2.512192757
1.7	2.497415153
1.71	2.482810386
1.72	2.468375442
1.73	2.454107376
1.74	2.44000331
1.75	2.426060434
1.76	2.412276
1.77	2.398647322
1.78	2.385171775
1.79	2.371846793
1.8	2.358669867
1.81	2.345638541
1.82	2.332750418
1.83	2.320003148
1.84	2.307394435
1.85	2.294922032
1.86	2.282583742
1.87	2.270377412
1.88	2.258300936
1.89	2.246352254
1.9	2.234529347
1.91	2.222830241
1.92	2.211253
1.93	2.199795731
1.94	2.188456577
1.95	2.177233723
1.96	2.166125388
1.97	2.155129827
1.98	2.144245333
1.99	2.133470231
2	2.12280288
2.01	2.112241672
2.02	2.10178503
2.03	2.091431409
2.04	2.081179294
2.05	2.0710272
2.06	2.06097367
2.07	2.051017275
2.08	2.041156615
2.09	2.031390316
2.1	2.021717029
2.11	2.012135431
2.12	2.002644226
2.13	1.993242141
2.14	1.983927925
2.15	1.974700353
2.16	1.965558222
2.17	1.95650035
2.18	1.947525578
2.19	1.938632767
2.2	1.9298208
2.21	1.921088579
2.22	1.912435027
2.23	1.903859085
2.24	1.895359714
2.25	1.886935893
2.26	1.878586619
2.27	1.870310907
2.28	1.862107789
2.29	1.853976314
2.3	1.845915548
2.31	1.837924571
2.32	1.830002483
2.33	1.822148395
2.34	1.814361436
2.35	1.806640749
2.36	1.798985492
2.37	1.791394835
2.38	1.783867966
2.39	1.776404084
2.4	1.7690024
2.41	1.761662141
2.42	1.754382545
2.43	1.747162864
2.44	1.740002361
2.45	1.73290031
2.46	1.725856
2.47	1.718868729
2.48	1.711937806
2.49	1.705062554
2.5	1.698242304
2.51	1.691476398
2.52	1.68476419
2.53	1.678105043
2.54	1.671498331
2.55	1.664943435
2.56	1.65843975
2.57	1.651986677
2.58	1.645583628
2.59	1.639230023
2.6	1.632925292
2.61	1.626668874
2.62	1.620460214
2.63	1.614298768
2.64	1.608184
2.65	1.602115381
2.66	1.596092391
2.67	1.590114517
2.68	1.584181254
2.69	1.578292104
2.7	1.572446578
2.71	1.566644192
2.72	1.560884471
2.73	1.555166945
2.74	1.549491153
2.75	1.54385664
2.76	1.538262957
2.77	1.532709661
2.78	1.527196317
2.79	1.521722495
2.8	1.516287771
2.81	1.51089173
2.82	1.505533957
2.83	1.500214049
2.84	1.494931606
2.85	1.489686232
2.86	1.484477538
2.87	1.479305143
2.88	1.474168667
2.89	1.469067737
2.9	1.464001986
2.91	1.458971052
2.92	1.453974575
2.93	1.449012205
2.94	1.444083592
2.95	1.439188393
2.96	1.43432627
2.97	1.429496889
2.98	1.424699919
2.99	1.419935037
3	1.41520192
3.01	1.410500252
3.02	1.405829722
3.03	1.40119002
3.04	1.396580842
3.05	1.392001889
3.06	1.387452863
3.07	1.382933472
3.08	1.378443429
3.09	1.373982447
3.1	1.369550245
3.11	1.365146547
3.12	1.360771077
3.13	1.356423565
3.14	1.352103745
3.15	1.347811352
3.16	1.343546127
3.17	1.339307811
3.18	1.335096151
3.19	1.330910897
3.2	1.3267518
3.21	1.322618617
3.22	1.318511106
3.23	1.314429028
3.24	1.310372148
3.25	1.306340234
3.26	1.302333055
3.27	1.298350385
3.28	1.294392
3.29	1.290457678
3.3	1.2865472
3.31	1.28266035
3.32	1.278796916
3.33	1.274956685
3.34	1.271139449
3.35	1.267345003
3.36	1.263573143
3.37	1.259823668
3.38	1.256096379
3.39	1.25239108
3.4	1.248707576
3.41	1.245045677
3.42	1.241405193
3.43	1.237785936
3.44	1.234187721
3.45	1.230610365
3.46	1.227053688
3.47	1.22351751
3.48	1.220001655
3.49	1.216505948
3.5	1.213030217
3.51	1.209574291
3.52	1.206138
3.53	1.202721178
3.54	1.199323661
3.55	1.195945285
3.56	1.192585888
3.57	1.189245311
3.58	1.185923397
3.59	1.182619989
3.6	1.179334933
3.61	1.176068078
3.62	1.172819271
3.63	1.169588364
3.64	1.166375209
3.65	1.16317966
3.66	1.160001574
3.67	1.156840807
3.68	1.153697217
3.69	1.150570667
3.7	1.147461016
3.71	1.144368129
3.72	1.141291871
3.73	1.138232107
3.74	1.135188706
3.75	1.132161536
3.76	1.129150468
3.77	1.126155374
3.78	1.123176127
3.79	1.120212602
3.8	1.117264674
3.81	1.11433222
3.82	1.11141512
3.83	1.108513253
3.84	1.1056265
3.85	1.102754743
3.86	1.099897865
3.87	1.097055752
3.88	1.094228289
3.89	1.091415362
3.9	1.088616862
3.91	1.085832675
3.92	1.083062694
3.93	1.080306809
3.94	1.077564914
3.95	1.074836901
3.96	1.072122667
3.97	1.069422106
3.98	1.066735116
3.99	1.064061594
4	1.06140144
4.01	1.058754554
4.02	1.056120836
4.03	1.053500189
4.04	1.050892515
4.05	1.048297719
4.06	1.045715704
4.07	1.043146378
4.08	1.040589647
4.09	1.038045418
4.1	1.0355136
4.11	1.032994102
4.12	1.030486835
4.13	1.027991709
4.14	1.025508638
4.15	1.023037533
4.16	1.020578308
4.17	1.018130878
4.18	1.015695158
4.19	1.013271064
4.2	1.010858514
4.21	1.008457425
4.22	1.006067716
4.23	1.003689305
4.24	1.001322113
4.25	0.998966061
4.26	0.99662107
4.27	0.994287063
4.28	0.991963963
4.29	0.989651692
4.3	0.987350177
4.31	0.985059341
4.32	0.982779111
4.33	0.980509413
4.34	0.978250175
4.35	0.976001324
4.36	0.973762789
4.37	0.971534499
4.38	0.969316384
4.39	0.967108374
4.4	0.9649104
4.41	0.962722395
4.42	0.96054429
4.43	0.958376018
4.44	0.956217514
4.45	0.95406871
4.46	0.951929543
4.47	0.949799946
4.48	0.947679857
4.49	0.945569212
4.5	0.943467947
4.51	0.941376
4.52	0.93929331
4.53	0.937219815
4.54	0.935155454
4.55	0.933100167
4.56	0.931053895
4.57	0.929016578
4.58	0.926988157
4.59	0.924968575
4.6	0.922957774
4.61	0.920955696
4.62	0.918962286
4.63	0.916977486
4.64	0.915001241
4.65	0.913033497
4.66	0.911074197
4.67	0.909123289
4.68	0.907180718
4.69	0.905246431
4.7	0.903320374
4.71	0.901402497
4.72	0.899492746
4.73	0.89759107
4.74	0.895697418
4.75	0.893811739
4.76	0.891933983
4.77	0.890064101
4.78	0.888202042
4.79	0.886347758
4.8	0.8845012
4.81	0.88266232
4.82	0.880831071
4.83	0.879007404
4.84	0.877191273
4.85	0.875382631
4.86	0.873581432
4.87	0.87178763
4.88	0.87000118
4.89	0.868222037
4.9	0.866450155
4.91	0.864685491
4.92	0.862928
4.93	0.861177639
4.94	0.859434364
4.95	0.857698133
4.96	0.855968903
4.97	0.854246632
4.98	0.852531277
4.99	0.850822798
5	0.849121152
5.01	0.847426299
5.02	0.845738199
5.03	0.844056811
5.04	0.842382095
5.05	0.840714012
5.06	0.839052522
5.07	0.837397586
5.08	0.835749165
5.09	0.834107222
5.1	0.832471718
5.11	0.830842614
5.12	0.829219875
5.13	0.827603462
5.14	0.825993339
5.15	0.824389468
5.16	0.822791814
5.17	0.82120034
5.18	0.819615012
5.19	0.818035792
5.2	0.816462646
5.21	0.814895539
5.22	0.813334437
5.23	0.811779304
5.24	0.810230107
5.25	0.808686811
5.26	0.807149384
5.27	0.805617791
5.28	0.804092
5.29	0.802571977
5.3	0.801057691
5.31	0.799549107
5.32	0.798046195
5.33	0.796548923
5.34	0.795057258
5.35	0.79357117
5.36	0.792090627
5.37	0.790615598
5.38	0.789146052
5.39	0.787681959
5.4	0.786223289
5.41	0.784770011
5.42	0.783322096
5.43	0.781879514
5.44	0.780442235
5.45	0.779010231
5.46	0.777583473
5.47	0.776161931
5.48	0.774745577
5.49	0.773334383
5.5	0.77192832
5.51	0.770527361
5.52	0.769131478
5.53	0.767740644
5.54	0.76635483
5.55	0.764974011
5.56	0.763598158
5.57	0.762227246
5.58	0.760861247
5.59	0.759500136
5.6	0.758143886
5.61	0.756792471
5.62	0.755445865
5.63	0.754104043
5.64	0.752766979
5.65	0.751434648
5.66	0.750107025
5.67	0.748784085
5.68	0.747465803
5.69	0.746152155
5.7	0.744843116
5.71	0.743538662
5.72	0.742238769
5.73	0.740943414
5.74	0.739652571
5.75	0.738366219
5.76	0.737084333
5.77	0.735806891
5.78	0.734533869
5.79	0.733265244
5.8	0.732000993
5.81	0.730741095
5.82	0.729485526
5.83	0.728234264
5.84	0.726987288
5.85	0.725744574
5.86	0.724506102
5.87	0.72327185
5.88	0.722041796
5.89	0.720815919
5.9	0.719594197
5.91	0.718376609
5.92	0.717163135
5.93	0.715953754
5.94	0.714748444
5.95	0.713547187
5.96	0.71234996
5.97	0.711156744
5.98	0.709967518
5.99	0.708782264
6	0.70760096
6.01	0.706423587
6.02	0.705250126
6.03	0.704080557
6.04	0.702914861
6.05	0.701753018
6.06	0.70059501
6.07	0.699440817
6.08	0.698290421
6.09	0.697143803
6.1	0.696000944
6.11	0.694861827
6.12	0.693726431
6.13	0.692594741
6.14	0.691466736
6.15	0.6903424
6.16	0.689221714
6.17	0.688104661
6.18	0.686991223
6.19	0.685881383
6.2	0.684775123
6.21	0.683672425
6.22	0.682573273
6.23	0.68147765
6.24	0.680385538
6.25	0.679296922
6.26	0.678211783
6.27	0.677130105
6.28	0.676051873
6.29	0.674977068
6.3	0.673905676
6.31	0.67283768
6.32	0.671773063
6.33	0.67071181
6.34	0.669653905
6.35	0.668599332
6.36	0.667548075
6.37	0.666500119
6.38	0.665455448
6.39	0.664414047
6.4	0.6633759
6.41	0.662340992
6.42	0.661309308
6.43	0.660280834
6.44	0.659255553
6.45	0.658233451
6.46	0.657214514
6.47	0.656198726
6.48	0.655186074
6.49	0.654176542
6.5	0.653170117
6.51	0.652166783
6.52	0.651166528
6.53	0.650169335
6.54	0.649175193
6.55	0.648184085
6.56	0.647196
6.57	0.646210922
6.58	0.645228839
6.59	0.644249736
6.6	0.6432736
6.61	0.642300418
6.62	0.641330175
6.63	0.64036286
6.64	0.639398458
6.65	0.638436956
6.66	0.637478342
6.67	0.636522603
6.68	0.635569725
6.69	0.634619695
6.7	0.633672501
6.71	0.632728131
6.72	0.631786571
6.73	0.63084781
6.74	0.629911834
6.75	0.628978631
6.76	0.628048189
6.77	0.627120496
6.78	0.62619554
6.79	0.625273308
6.8	0.624353788
6.81	0.623436969
6.82	0.622522839
6.83	0.621611385
6.84	0.620702596
6.85	0.619796461
6.86	0.618892968
6.87	0.617992105
6.88	0.61709386
6.89	0.616198224
6.9	0.615305183
6.91	0.614414726
6.92	0.613526844
6.93	0.612641524
6.94	0.611758755
6.95	0.610878527
6.96	0.610000828
6.97	0.609125647
6.98	0.608252974
6.99	0.607382798
7	0.606515109
7.01	0.605649894
7.02	0.604787145
7.03	0.603926851
7.04	0.603069
7.05	0.602213583
7.06	0.601360589
7.07	0.600510008
7.08	0.599661831
7.09	0.598816045
7.1	0.597972642
7.11	0.597131612
7.12	0.596292944
7.13	0.595456628
7.14	0.594622655
7.15	0.593791015
7.16	0.592961698
7.17	0.592134695
7.18	0.591309994
7.19	0.590487588
7.2	0.589667467
7.21	0.58884962
7.22	0.588034039
7.23	0.587220714
7.24	0.586409635
7.25	0.585600794
7.26	0.584794182
7.27	0.583989788
7.28	0.583187604
7.29	0.582387621
7.3	0.58158983
7.31	0.580794222
7.32	0.580000787
7.33	0.579209517
7.34	0.578420403
7.35	0.577633437
7.36	0.576848609
7.37	0.57606591
7.38	0.575285333
7.39	0.574506869
7.4	0.573730508
7.41	0.572956243
7.42	0.572184065
7.43	0.571413965
7.44	0.570645935
7.45	0.569879968
7.46	0.569116054
7.47	0.568354185
7.48	0.567594353
7.49	0.56683655
7.5	0.566080768
7.51	0.565326999
7.52	0.564575234
7.53	0.563825466
7.54	0.563077687
7.55	0.562331889
7.56	0.561588063
7.57	0.560846203
7.58	0.560106301
7.59	0.559368348
7.6	0.558632337
7.61	0.55789826
7.62	0.55716611
7.63	0.556435879
7.64	0.55570756
7.65	0.554981145
7.66	0.554256627
7.67	0.553533997
7.68	0.55281325
7.69	0.552094377
7.7	0.551377371
7.71	0.550662226
7.72	0.549948933
7.73	0.549237485
7.74	0.548527876
7.75	0.547820098
7.76	0.547114144
7.77	0.546410008
7.78	0.545707681
7.79	0.545007158
7.8	0.544308431
7.81	0.543611493
7.82	0.542916338
7.83	0.542222958
7.84	0.541531347
7.85	0.540841498
7.86	0.540153405
7.87	0.53946706
7.88	0.538782457
7.89	0.538099589
7.9	0.537418451
7.91	0.536739034
7.92	0.536061333
7.93	0.535385342
7.94	0.534711053
7.95	0.53403846
7.96	0.533367558
7.97	0.532698339
7.98	0.532030797
7.99	0.531364926
8	0.53070072
8.01	0.530038172
8.02	0.529377277
8.03	0.528718027
8.04	0.528060418
8.05	0.527404442
8.06	0.526750094
8.07	0.526097368
8.08	0.525446257
8.09	0.524796756
8.1	0.524148859
8.11	0.52350256
8.12	0.522857852
8.13	0.522214731
8.14	0.521573189
8.15	0.520933222
8.16	0.520294824
8.17	0.519657988
8.18	0.519022709
8.19	0.518388982
8.2	0.5177568
8.21	0.517126158
8.22	0.516497051
8.23	0.515869473
8.24	0.515243417
8.25	0.51461888
8.26	0.513995855
8.27	0.513374336
8.28	0.512754319
8.29	0.512135797
8.3	0.511518766
8.31	0.51090322
8.32	0.510289154
8.33	0.509676562
8.34	0.509065439
8.35	0.50845578
8.36	0.507847579
8.37	0.507240832
8.38	0.506635532
8.39	0.506031676
8.4	0.505429257
8.41	0.504828271
8.42	0.504228713
8.43	0.503630577
8.44	0.503033858
8.45	0.502438551
8.46	0.501844652
8.47	0.501252156
8.48	0.500661057
8.49	0.50007135
8.5	0.499483031
8.51	0.498896094
8.52	0.498310535
8.53	0.497726349
8.54	0.497143532
8.55	0.496562077
8.56	0.495981981
8.57	0.495403239
8.58	0.494825846
8.59	0.494249797
8.6	0.493675088
8.61	0.493101714
8.62	0.492529671
8.63	0.491958952
8.64	0.491389556
8.65	0.490821475
8.66	0.490254707
8.67	0.489689246
8.68	0.489125088
8.69	0.488562228
8.7	0.488000662
8.71	0.487440386
8.72	0.486881394
8.73	0.486323684
8.74	0.485767249
8.75	0.485212087
8.76	0.484658192
8.77	0.48410556
8.78	0.483554187
8.79	0.483004068
8.8	0.4824552
8.81	0.481907578
8.82	0.481361197
8.83	0.480816054
8.84	0.480272145
8.85	0.479729464
8.86	0.479188009
8.87	0.478647775
8.88	0.478108757
8.89	0.477570952
8.9	0.477034355
8.91	0.476498963
8.92	0.475964771
8.93	0.475431776
8.94	0.474899973
8.95	0.474369359
8.96	0.473839929
8.97	0.473311679
8.98	0.472784606
8.99	0.472258705
9	0.471733973
9.01	0.471210406
9.02	0.470688
9.03	0.470166751
9.04	0.469646655
9.05	0.469127708
9.06	0.468609907
9.07	0.468093248
9.08	0.467577727
9.09	0.46706334
9.1	0.466550084
9.11	0.466037954
9.12	0.465526947
9.13	0.46501706
9.14	0.464508289
9.15	0.46400063
9.16	0.463494079
9.17	0.462988632
9.18	0.462484288
9.19	0.46198104
9.2	0.461478887
9.21	0.460977824
9.22	0.460477848
9.23	0.459978956
9.24	0.459481143
9.25	0.458984406
9.26	0.458488743
9.27	0.457994149
9.28	0.457500621
9.29	0.457008155
9.3	0.456516748
9.31	0.456026397
9.32	0.455537099
9.33	0.455048849
9.34	0.454561645
9.35	0.454075482
9.36	0.453590359
9.37	0.453106271
9.38	0.452623215
9.39	0.452141188
9.4	0.451660187
9.41	0.451180208
9.42	0.450701248
9.43	0.450223304
9.44	0.449746373
9.45	0.449270451
9.46	0.448795535
9.47	0.448321622
9.48	0.447848709
9.49	0.447376792
9.5	0.446905869
9.51	0.446435937
9.52	0.445966992
9.53	0.44549903
9.54	0.44503205
9.55	0.444566048
9.56	0.444101021
9.57	0.443636966
9.58	0.443173879
9.59	0.442711758
9.6	0.4422506
9.61	0.441790402
9.62	0.44133116
9.63	0.440872872
9.64	0.440415535
9.65	0.439959146
9.66	0.439503702
9.67	0.4390492
9.68	0.438595636
9.69	0.438143009
9.7	0.437691315
9.71	0.437240552
9.72	0.436790716
9.73	0.436341805
9.74	0.435893815
9.75	0.435446745
9.76	0.43500059
9.77	0.434555349
9.78	0.434111018
9.79	0.433667596
9.8	0.433225078
9.81	0.432783462
9.82	0.432342745
9.83	0.431902926
9.84	0.431464
9.85	0.431025965
9.86	0.430588819
9.87	0.430152559
9.88	0.429717182
9.89	0.429282686
9.9	0.428849067
9.91	0.428416323
9.92	0.427984452
9.93	0.42755345
9.94	0.427123316
9.95	0.426694046
9.96	0.426265639
9.97	0.42583809
9.98	0.425411399
9.99	0.424985562
10	0.424560576
10.01	0.42413644
10.02	0.42371315
10.03	0.423290704
10.04	0.4228691
10.05	0.422448334
10.06	0.422028406
10.07	0.421609311
10.08	0.421191048
10.09	0.420773613
10.1	0.420357006
10.11	0.419941223
10.12	0.419526261
10.13	0.419112118
10.14	0.418698793
10.15	0.418286282
10.16	0.417874583
10.17	0.417463693
10.18	0.417053611
10.19	0.416644334
10.2	0.416235859
10.21	0.415828184
10.22	0.415421307
10.23	0.415015226
10.24	0.414609938
10.25	0.41420544
10.26	0.413801731
10.27	0.413398808
10.28	0.412996669
10.29	0.412595312
10.3	0.412194734
10.31	0.411794933
10.32	0.411395907
10.33	0.410997653
10.34	0.41060017
10.35	0.410203455
10.36	0.409807506
10.37	0.40941232
10.38	0.409017896
10.39	0.408624231
10.4	0.408231323
10.41	0.40783917
10.42	0.40744777
10.43	0.40705712
10.44	0.406667218
10.45	0.406278063
10.46	0.405889652
10.47	0.405501983
10.48	0.405115053
10.49	0.404728862
10.5	0.404343406
10.51	0.403958683
10.52	0.403574692
10.53	0.40319143
10.54	0.402808896
10.55	0.402427086
10.56	0.402046
10.57	0.401665635
10.58	0.401285989
10.59	0.400907059
10.6	0.400528845
10.61	0.400151344
10.62	0.399774554
10.63	0.399398472
10.64	0.399023098
10.65	0.398648428
10.66	0.398274462
10.67	0.397901196
10.68	0.397528629
10.69	0.39715676
10.7	0.396785585
10.71	0.396415104
10.72	0.396045313
10.73	0.395676212
10.74	0.395307799
10.75	0.394940071
10.76	0.394573026
10.77	0.394206663
10.78	0.39384098
10.79	0.393475974
10.8	0.393111644
10.81	0.392747989
10.82	0.392385006
10.83	0.392022693
10.84	0.391661048
10.85	0.39130007
10.86	0.390939757
10.87	0.390580107
10.88	0.390221118
10.89	0.389862788
10.9	0.389505116
10.91	0.389148099
10.92	0.388791736
10.93	0.388436026
10.94	0.388080965
10.95	0.387726553
10.96	0.387372788
10.97	0.387019668
10.98	0.386667191
10.99	0.386315356
11	0.38596416
11.01	0.385613602
11.02	0.385263681
11.03	0.384914393
11.04	0.384565739
11.05	0.384217716
11.06	0.383870322
11.07	0.383523556
11.08	0.383177415
11.09	0.382831899
11.1	0.382487005
11.11	0.382142733
11.12	0.381799079
11.13	0.381456043
11.14	0.381113623
11.15	0.380771817
11.16	0.380430624
11.17	0.380090041
11.18	0.379750068
11.19	0.379410702
11.2	0.379071943
11.21	0.378733788
11.22	0.378396235
11.23	0.378059284
11.24	0.377722932
11.25	0.377387179
11.26	0.377052021
11.27	0.376717459
11.28	0.376383489
11.29	0.376050112
11.3	0.375717324
11.31	0.375385125
11.32	0.375053512
11.33	0.374722485
11.34	0.374392042
11.35	0.374062181
11.36	0.373732901
11.37	0.373404201
11.38	0.373076077
11.39	0.37274853
11.4	0.372421558
11.41	0.372095159
11.42	0.371769331
11.43	0.371444073
11.44	0.371119385
11.45	0.370795263
11.46	0.370471707
11.47	0.370148715
11.48	0.369826286
11.49	0.369504418
11.5	0.36918311
11.51	0.36886236
11.52	0.368542167
11.53	0.368222529
11.54	0.367903445
11.55	0.367584914
11.56	0.367266934
11.57	0.366949504
11.58	0.366632622
11.59	0.366316286
11.6	0.366000497
11.61	0.365685251
11.62	0.365370547
11.63	0.365056385
11.64	0.364742763
11.65	0.364429679
11.66	0.364117132
11.67	0.363805121
11.68	0.363493644
11.69	0.3631827
11.7	0.362872287
11.71	0.362562405
11.72	0.362253051
11.73	0.361944225
11.74	0.361635925
11.75	0.36132815
11.76	0.361020898
11.77	0.360714168
11.78	0.360407959
11.79	0.36010227
11.8	0.359797098
11.81	0.359492444
11.82	0.359188305
11.83	0.35888468
11.84	0.358581568
11.85	0.358278967
11.86	0.357976877
11.87	0.357675296
11.88	0.357374222
11.89	0.357073655
11.9	0.356773593
11.91	0.356474035
11.92	0.35617498
